Frequency (Hz)	Amplitude (m)	Phase Angle (deg)	Real (m)	Imaginary (m)
36020	9.2378e-010	180.	-9.2378e-010	0.
36040	9.3046e-010	180.	-9.3046e-010	0.
36060	9.3725e-010	180.	-9.3725e-010	0.
36080	9.4413e-010	180.	-9.4413e-010	0.
36100	9.5111e-010	180.	-9.5111e-010	0.
36120	9.582e-010	180.	-9.582e-010	0.
36140	9.6539e-010	180.	-9.6539e-010	0.
36160	9.727e-010	180.	-9.727e-010	0.
36180	9.8011e-010	180.	-9.8011e-010	0.
36200	9.8764e-010	180.	-9.8764e-010	0.
36220	9.9529e-010	180.	-9.9529e-010	0.
36240	1.0031e-009	180.	-1.0031e-009	0.
36260	1.0109e-009	180.	-1.0109e-009	0.
36280	1.019e-009	180.	-1.019e-009	0.
36300	1.0271e-009	180.	-1.0271e-009	0.
36320	1.0354e-009	180.	-1.0354e-009	0.
36340	1.0438e-009	180.	-1.0438e-009	0.
36360	1.0523e-009	180.	-1.0523e-009	0.
36380	1.061e-009	180.	-1.061e-009	0.
36400	1.0699e-009	180.	-1.0699e-009	0.
36420	1.0788e-009	180.	-1.0788e-009	0.
36440	1.088e-009	180.	-1.088e-009	0.
36460	1.0973e-009	180.	-1.0973e-009	0.
36480	1.1067e-009	180.	-1.1067e-009	0.
36500	1.1163e-009	180.	-1.1163e-009	0.
36520	1.1261e-009	180.	-1.1261e-009	0.
36540	1.1361e-009	180.	-1.1361e-009	0.
36560	1.1462e-009	180.	-1.1462e-009	0.
36580	1.1566e-009	180.	-1.1566e-009	0.
36600	1.1671e-009	180.	-1.1671e-009	0.
36620	1.1778e-009	180.	-1.1778e-009	0.
36640	1.1887e-009	180.	-1.1887e-009	0.
36660	1.1998e-009	180.	-1.1998e-009	0.
36680	1.2111e-009	180.	-1.2111e-009	0.
36700	1.2226e-009	180.	-1.2226e-009	0.
36720	1.2344e-009	180.	-1.2344e-009	0.
36740	1.2464e-009	180.	-1.2464e-009	0.
36760	1.2586e-009	180.	-1.2586e-009	0.
36780	1.2711e-009	180.	-1.2711e-009	0.
36800	1.2839e-009	180.	-1.2839e-009	0.
36820	1.2969e-009	180.	-1.2969e-009	0.
36840	1.3102e-009	180.	-1.3102e-009	0.
36860	1.3238e-009	180.	-1.3238e-009	0.
36880	1.3379e-009	180.	-1.3379e-009	0.
36900	1.3527e-009	180.	-1.3527e-009	0.
36920	1.3726e-009	180.	-1.3726e-009	0.
36940	1.3786e-009	180.	-1.3786e-009	0.
36960	1.3941e-009	180.	-1.3941e-009	0.
36980	1.4097e-009	180.	-1.4097e-009	0.
37000	1.4256e-009	180.	-1.4256e-009	0.
37020	1.4417e-009	180.	-1.4417e-009	0.
37040	1.4582e-009	180.	-1.4582e-009	0.
37060	1.475e-009	180.	-1.475e-009	0.
37080	1.4921e-009	180.	-1.4921e-009	0.
37100	1.5097e-009	180.	-1.5097e-009	0.
37120	1.5277e-009	180.	-1.5277e-009	0.
37140	1.5461e-009	180.	-1.5461e-009	0.
37160	1.565e-009	180.	-1.565e-009	0.
37180	1.5843e-009	180.	-1.5843e-009	0.
37200	1.6041e-009	180.	-1.6041e-009	0.
37220	1.6244e-009	180.	-1.6244e-009	0.
37240	1.6453e-009	180.	-1.6453e-009	0.
37260	1.6666e-009	180.	-1.6666e-009	0.
37280	1.6886e-009	180.	-1.6886e-009	0.
37300	1.7111e-009	180.	-1.7111e-009	0.
37320	1.7342e-009	180.	-1.7342e-009	0.
37340	1.758e-009	180.	-1.758e-009	0.
37360	1.7824e-009	180.	-1.7824e-009	0.
37380	1.8075e-009	180.	-1.8075e-009	0.
37400	1.8333e-009	180.	-1.8333e-009	0.
37420	1.8599e-009	180.	-1.8599e-009	0.
37440	1.8872e-009	180.	-1.8872e-009	0.
37460	1.9154e-009	180.	-1.9154e-009	0.
37480	1.9444e-009	180.	-1.9444e-009	0.
37500	1.9743e-009	180.	-1.9743e-009	0.
37520	2.0051e-009	180.	-2.0051e-009	0.
37540	2.0369e-009	180.	-2.0369e-009	0.
37560	2.0698e-009	180.	-2.0698e-009	0.
37580	2.1037e-009	180.	-2.1037e-009	0.
37600	2.1387e-009	180.	-2.1387e-009	0.
37620	2.175e-009	180.	-2.175e-009	0.
37640	2.2125e-009	180.	-2.2125e-009	0.
37660	2.2513e-009	180.	-2.2513e-009	0.
37680	2.2914e-009	180.	-2.2914e-009	0.
37700	2.3331e-009	180.	-2.3331e-009	0.
37720	2.3763e-009	180.	-2.3763e-009	0.
37740	2.4211e-009	180.	-2.4211e-009	0.
37760	2.4676e-009	180.	-2.4676e-009	0.
37780	2.516e-009	180.	-2.516e-009	0.
37800	2.5663e-009	180.	-2.5663e-009	0.
37820	2.6186e-009	180.	-2.6186e-009	0.
37840	2.6731e-009	180.	-2.6731e-009	0.
37860	2.7299e-009	180.	-2.7299e-009	0.
37880	2.7892e-009	180.	-2.7892e-009	0.
37900	2.8512e-009	180.	-2.8512e-009	0.
37920	2.9159e-009	180.	-2.9159e-009	0.
37940	2.9837e-009	180.	-2.9837e-009	0.
37960	3.0547e-009	180.	-3.0547e-009	0.
37980	3.1291e-009	180.	-3.1291e-009	0.
38000	3.2072e-009	180.	-3.2072e-009	0.
38020	3.2894e-009	180.	-3.2894e-009	0.
38040	3.3759e-009	180.	-3.3759e-009	0.
38060	3.467e-009	180.	-3.467e-009	0.
38080	3.5632e-009	180.	-3.5632e-009	0.
38100	3.6649e-009	180.	-3.6649e-009	0.
38120	3.7725e-009	180.	-3.7725e-009	0.
38140	3.8867e-009	180.	-3.8867e-009	0.
38160	4.0079e-009	180.	-4.0079e-009	0.
38180	4.137e-009	180.	-4.137e-009	0.
38200	4.2747e-009	180.	-4.2747e-009	0.
38220	4.4218e-009	180.	-4.4218e-009	0.
38240	4.5795e-009	180.	-4.5795e-009	0.
38260	4.7488e-009	180.	-4.7488e-009	0.
38280	4.931e-009	180.	-4.931e-009	0.
38300	5.1279e-009	180.	-5.1279e-009	0.
38320	5.3411e-009	180.	-5.3411e-009	0.
38340	5.5727e-009	180.	-5.5727e-009	0.
38360	5.8254e-009	180.	-5.8254e-009	0.
38380	6.102e-009	180.	-6.102e-009	0.
38400	6.4063e-009	180.	-6.4063e-009	0.
38420	6.7424e-009	180.	-6.7424e-009	0.
38440	7.1158e-009	180.	-7.1158e-009	0.
38460	7.5329e-009	180.	-7.5329e-009	0.
38480	8.0019e-009	180.	-8.0019e-009	0.
38500	8.5332e-009	180.	-8.5332e-009	0.
38520	9.1401e-009	180.	-9.1401e-009	0.
38540	9.8398e-009	180.	-9.8398e-009	0.
38560	1.0656e-008	180.	-1.0656e-008	0.
38580	1.1619e-008	180.	-1.1619e-008	0.
38600	1.2773e-008	180.	-1.2773e-008	0.
38620	1.4183e-008	180.	-1.4183e-008	0.
38640	1.5941e-008	180.	-1.5941e-008	0.
38660	1.8198e-008	180.	-1.8198e-008	0.
38680	2.1198e-008	180.	-2.1198e-008	0.
38700	2.5383e-008	180.	-2.5383e-008	0.
38720	3.1627e-008	180.	-3.1627e-008	0.
38740	4.1943e-008	180.	-4.1943e-008	0.
38760	6.2245e-008	180.	-6.2245e-008	0.
38780	1.2064e-007	180.	-1.2064e-007	0.
38800	1.9475e-006	180.	-1.9475e-006	0.
38820	1.377e-007	0.	1.377e-007	0.
38840	6.6503e-008	0.	6.6503e-008	0.
38860	4.3838e-008	0.	4.3838e-008	0.
38880	3.2695e-008	0.	3.2695e-008	0.
38900	2.6069e-008	0.	2.6069e-008	0.
38920	2.1677e-008	0.	2.1677e-008	0.
38940	1.8551e-008	0.	1.8551e-008	0.
38960	1.6213e-008	0.	1.6213e-008	0.
38980	1.4399e-008	0.	1.4399e-008	0.
39000	1.295e-008	0.	1.295e-008	0.
39020	1.1766e-008	0.	1.1766e-008	0.
39040	1.078e-008	0.	1.078e-008	0.
39060	9.9469e-009	0.	9.9469e-009	0.
39080	9.2333e-009	0.	9.2333e-009	0.
39100	8.6153e-009	0.	8.6153e-009	0.
39120	8.0749e-009	0.	8.0749e-009	0.
39140	7.5982e-009	0.	7.5982e-009	0.
39160	7.1748e-009	0.	7.1748e-009	0.
39180	6.796e-009	0.	6.796e-009	0.
39200	6.4553e-009	0.	6.4553e-009	0.
39220	6.1471e-009	0.	6.1471e-009	0.
39240	5.8671e-009	0.	5.8671e-009	0.
39260	5.6114e-009	0.	5.6114e-009	0.
39280	5.3771e-009	0.	5.3771e-009	0.
39300	5.1616e-009	0.	5.1616e-009	0.
39320	4.9628e-009	0.	4.9628e-009	0.
39340	4.7787e-009	0.	4.7787e-009	0.
39360	4.6077e-009	0.	4.6077e-009	0.
39380	4.4486e-009	0.	4.4486e-009	0.
39400	4.3002e-009	0.	4.3002e-009	0.
39420	4.1613e-009	0.	4.1613e-009	0.
39440	4.0311e-009	0.	4.0311e-009	0.
39460	3.9088e-009	0.	3.9088e-009	0.
39480	3.7938e-009	0.	3.7938e-009	0.
39500	3.6853e-009	0.	3.6853e-009	0.
39520	3.5829e-009	0.	3.5829e-009	0.
39540	3.486e-009	0.	3.486e-009	0.
39560	3.3942e-009	0.	3.3942e-009	0.
39580	3.3071e-009	0.	3.3071e-009	0.
39600	3.2244e-009	0.	3.2244e-009	0.
39620	3.1458e-009	0.	3.1458e-009	0.
39640	3.0709e-009	0.	3.0709e-009	0.
39660	2.9995e-009	0.	2.9995e-009	0.
39680	2.9313e-009	0.	2.9313e-009	0.
39700	2.8662e-009	0.	2.8662e-009	0.
39720	2.8039e-009	0.	2.8039e-009	0.
39740	2.7442e-009	0.	2.7442e-009	0.
39760	2.6871e-009	0.	2.6871e-009	0.
39780	2.6323e-009	0.	2.6323e-009	0.
39800	2.5796e-009	0.	2.5796e-009	0.
39820	2.5291e-009	0.	2.5291e-009	0.
39840	2.4805e-009	0.	2.4805e-009	0.
39860	2.4337e-009	0.	2.4337e-009	0.
39880	2.3887e-009	0.	2.3887e-009	0.
39900	2.3453e-009	0.	2.3453e-009	0.
39920	2.3035e-009	0.	2.3035e-009	0.
39940	2.2631e-009	0.	2.2631e-009	0.
39960	2.2241e-009	0.	2.2241e-009	0.
39980	2.1865e-009	0.	2.1865e-009	0.
40000	2.1501e-009	0.	2.1501e-009	0.
40020	2.1149e-009	0.	2.1149e-009	0.
40040	2.0808e-009	0.	2.0808e-009	0.
40060	2.0478e-009	0.	2.0478e-009	0.
40080	2.0159e-009	0.	2.0159e-009	0.
40100	1.9849e-009	0.	1.9849e-009	0.
40120	1.9549e-009	0.	1.9549e-009	0.
40140	1.9258e-009	0.	1.9258e-009	0.
40160	1.8975e-009	0.	1.8975e-009	0.
40180	1.8701e-009	0.	1.8701e-009	0.
40200	1.8434e-009	0.	1.8434e-009	0.
40220	1.8175e-009	0.	1.8175e-009	0.
40240	1.7923e-009	0.	1.7923e-009	0.
40260	1.7678e-009	0.	1.7678e-009	0.
40280	1.744e-009	0.	1.744e-009	0.
40300	1.7208e-009	0.	1.7208e-009	0.
40320	1.6982e-009	0.	1.6982e-009	0.
40340	1.6762e-009	0.	1.6762e-009	0.
40360	1.6547e-009	0.	1.6547e-009	0.
40380	1.6339e-009	0.	1.6339e-009	0.
40400	1.6135e-009	0.	1.6135e-009	0.
40420	1.5936e-009	0.	1.5936e-009	0.
40440	1.5743e-009	0.	1.5743e-009	0.
40460	1.5553e-009	0.	1.5553e-009	0.
40480	1.5369e-009	0.	1.5369e-009	0.
40500	1.5189e-009	0.	1.5189e-009	0.
40520	1.5013e-009	0.	1.5013e-009	0.
40540	1.4841e-009	0.	1.4841e-009	0.
40560	1.4672e-009	0.	1.4672e-009	0.
40580	1.4508e-009	0.	1.4508e-009	0.
40600	1.4348e-009	0.	1.4348e-009	0.
40620	1.419e-009	0.	1.419e-009	0.
40640	1.4037e-009	0.	1.4037e-009	0.
40660	1.3886e-009	0.	1.3886e-009	0.
40680	1.3739e-009	0.	1.3739e-009	0.
40700	1.3595e-009	0.	1.3595e-009	0.
40720	1.3454e-009	0.	1.3454e-009	0.
40740	1.3316e-009	0.	1.3316e-009	0.
40760	1.3181e-009	0.	1.3181e-009	0.
40780	1.3048e-009	0.	1.3048e-009	0.
40800	1.2918e-009	0.	1.2918e-009	0.
40820	1.2791e-009	0.	1.2791e-009	0.
40840	1.2666e-009	0.	1.2666e-009	0.
40860	1.2544e-009	0.	1.2544e-009	0.
40880	1.2424e-009	0.	1.2424e-009	0.
40900	1.2306e-009	0.	1.2306e-009	0.
40920	1.219e-009	0.	1.219e-009	0.
40940	1.2077e-009	0.	1.2077e-009	0.
40960	1.1966e-009	0.	1.1966e-009	0.
40980	1.1856e-009	0.	1.1856e-009	0.
41000	1.1749e-009	0.	1.1749e-009	0.
41020	1.1644e-009	0.	1.1644e-009	0.
41040	1.154e-009	0.	1.154e-009	0.
41060	1.1439e-009	0.	1.1439e-009	0.
41080	1.1339e-009	0.	1.1339e-009	0.
41100	1.1241e-009	0.	1.1241e-009	0.
41120	1.1145e-009	0.	1.1145e-009	0.
41140	1.105e-009	0.	1.105e-009	0.
41160	1.0957e-009	0.	1.0957e-009	0.
41180	1.0865e-009	0.	1.0865e-009	0.
41200	1.0775e-009	0.	1.0775e-009	0.
41220	1.0687e-009	0.	1.0687e-009	0.
41240	1.06e-009	0.	1.06e-009	0.
41260	1.0514e-009	0.	1.0514e-009	0.
41280	1.043e-009	0.	1.043e-009	0.
41300	1.0347e-009	0.	1.0347e-009	0.
41320	1.0265e-009	0.	1.0265e-009	0.
41340	1.0185e-009	0.	1.0185e-009	0.
41360	1.0106e-009	0.	1.0106e-009	0.
41380	1.0028e-009	0.	1.0028e-009	0.
41400	9.9517e-010	0.	9.9517e-010	0.
41420	9.8763e-010	0.	9.8763e-010	0.
41440	9.802e-010	0.	9.802e-010	0.
41460	9.7288e-010	0.	9.7288e-010	0.
41480	9.6568e-010	0.	9.6568e-010	0.
41500	9.5858e-010	0.	9.5858e-010	0.
41520	9.5158e-010	0.	9.5158e-010	0.
41540	9.4469e-010	0.	9.4469e-010	0.
41560	9.379e-010	0.	9.379e-010	0.
41580	9.312e-010	0.	9.312e-010	0.
41600	9.246e-010	0.	9.246e-010	0.
41620	9.181e-010	0.	9.181e-010	0.
41640	9.1169e-010	0.	9.1169e-010	0.
41660	9.0536e-010	0.	9.0536e-010	0.
41680	8.9913e-010	0.	8.9913e-010	0.
41700	8.9298e-010	0.	8.9298e-010	0.
41720	8.8691e-010	0.	8.8691e-010	0.
41740	8.8093e-010	0.	8.8093e-010	0.
41760	8.7503e-010	0.	8.7503e-010	0.
41780	8.6921e-010	0.	8.6921e-010	0.
41800	8.6347e-010	0.	8.6347e-010	0.
41820	8.578e-010	0.	8.578e-010	0.
41840	8.5221e-010	0.	8.5221e-010	0.
41860	8.4669e-010	0.	8.4669e-010	0.
41880	8.4125e-010	0.	8.4125e-010	0.
41900	8.3587e-010	0.	8.3587e-010	0.
41920	8.3056e-010	0.	8.3056e-010	0.
41940	8.2532e-010	0.	8.2532e-010	0.
41960	8.2015e-010	0.	8.2015e-010	0.
41980	8.1504e-010	0.	8.1504e-010	0.
42000	8.1e-010	0.	8.1e-010	0.
42020	8.0502e-010	0.	8.0502e-010	0.
42040	8.001e-010	0.	8.001e-010	0.
42060	7.9525e-010	0.	7.9525e-010	0.
42080	7.9045e-010	0.	7.9045e-010	0.
42100	7.8571e-010	0.	7.8571e-010	0.
42120	7.8102e-010	0.	7.8102e-010	0.
42140	7.764e-010	0.	7.764e-010	0.
42160	7.7183e-010	0.	7.7183e-010	0.
42180	7.6731e-010	0.	7.6731e-010	0.
42200	7.6285e-010	0.	7.6285e-010	0.
42220	7.5844e-010	0.	7.5844e-010	0.
42240	7.5408e-010	0.	7.5408e-010	0.
42260	7.4977e-010	0.	7.4977e-010	0.
42280	7.4551e-010	0.	7.4551e-010	0.
42300	7.413e-010	0.	7.413e-010	0.
42320	7.3714e-010	0.	7.3714e-010	0.
42340	7.3302e-010	0.	7.3302e-010	0.
42360	7.2895e-010	0.	7.2895e-010	0.
42380	7.2493e-010	0.	7.2493e-010	0.
42400	7.2095e-010	0.	7.2095e-010	0.
42420	7.1702e-010	0.	7.1702e-010	0.
42440	7.1313e-010	0.	7.1313e-010	0.
42460	7.0928e-010	0.	7.0928e-010	0.
42480	7.0547e-010	0.	7.0547e-010	0.
42500	7.0171e-010	0.	7.0171e-010	0.
42520	6.9799e-010	0.	6.9799e-010	0.
42540	6.943e-010	0.	6.943e-010	0.
42560	6.9066e-010	0.	6.9066e-010	0.
42580	6.8705e-010	0.	6.8705e-010	0.
42600	6.8349e-010	0.	6.8349e-010	0.
42620	6.7996e-010	0.	6.7996e-010	0.
42640	6.7646e-010	0.	6.7646e-010	0.
42660	6.7301e-010	0.	6.7301e-010	0.
42680	6.6959e-010	0.	6.6959e-010	0.
42700	6.662e-010	0.	6.662e-010	0.
42720	6.6285e-010	0.	6.6285e-010	0.
42740	6.5953e-010	0.	6.5953e-010	0.
42760	6.5625e-010	0.	6.5625e-010	0.
42780	6.53e-010	0.	6.53e-010	0.
42800	6.4979e-010	0.	6.4979e-010	0.
42820	6.466e-010	0.	6.466e-010	0.
42840	6.4345e-010	0.	6.4345e-010	0.
42860	6.4033e-010	0.	6.4033e-010	0.
42880	6.3724e-010	0.	6.3724e-010	0.
42900	6.3417e-010	0.	6.3417e-010	0.
42920	6.3114e-010	0.	6.3114e-010	0.
42940	6.2814e-010	0.	6.2814e-010	0.
42960	6.2517e-010	0.	6.2517e-010	0.
42980	6.2223e-010	0.	6.2223e-010	0.
43000	6.1931e-010	0.	6.1931e-010	0.
43020	6.1642e-010	0.	6.1642e-010	0.
43040	6.1356e-010	0.	6.1356e-010	0.
43060	6.1073e-010	0.	6.1073e-010	0.
43080	6.0792e-010	0.	6.0792e-010	0.
43100	6.0514e-010	0.	6.0514e-010	0.
43120	6.0239e-010	0.	6.0239e-010	0.
43140	5.9966e-010	0.	5.9966e-010	0.
43160	5.9696e-010	0.	5.9696e-010	0.
43180	5.9428e-010	0.	5.9428e-010	0.
43200	5.9162e-010	0.	5.9162e-010	0.
43220	5.8899e-010	0.	5.8899e-010	0.
43240	5.8639e-010	0.	5.8639e-010	0.
43260	5.8381e-010	0.	5.8381e-010	0.
43280	5.8125e-010	0.	5.8125e-010	0.
43300	5.7871e-010	0.	5.7871e-010	0.
43320	5.762e-010	0.	5.762e-010	0.
43340	5.737e-010	0.	5.737e-010	0.
43360	5.7123e-010	0.	5.7123e-010	0.
43380	5.6879e-010	0.	5.6879e-010	0.
43400	5.6636e-010	0.	5.6636e-010	0.
43420	5.6396e-010	0.	5.6396e-010	0.
43440	5.6157e-010	0.	5.6157e-010	0.
43460	5.5921e-010	0.	5.5921e-010	0.
43480	5.5686e-010	0.	5.5686e-010	0.
43500	5.5454e-010	0.	5.5454e-010	0.
43520	5.5224e-010	0.	5.5224e-010	0.
43540	5.4995e-010	0.	5.4995e-010	0.
43560	5.4769e-010	0.	5.4769e-010	0.
43580	5.4544e-010	0.	5.4544e-010	0.
43600	5.4322e-010	0.	5.4322e-010	0.
43620	5.4101e-010	0.	5.4101e-010	0.
43640	5.3882e-010	0.	5.3882e-010	0.
43660	5.3665e-010	0.	5.3665e-010	0.
43680	5.345e-010	0.	5.345e-010	0.
43700	5.3236e-010	0.	5.3236e-010	0.
43720	5.3024e-010	0.	5.3024e-010	0.
43740	5.2814e-010	0.	5.2814e-010	0.
43760	5.2606e-010	0.	5.2606e-010	0.
43780	5.2399e-010	0.	5.2399e-010	0.
43800	5.2194e-010	0.	5.2194e-010	0.
43820	5.1991e-010	0.	5.1991e-010	0.
43840	5.1789e-010	0.	5.1789e-010	0.
43860	5.1589e-010	0.	5.1589e-010	0.
43880	5.139e-010	0.	5.139e-010	0.
43900	5.1193e-010	0.	5.1193e-010	0.
43920	5.0998e-010	0.	5.0998e-010	0.
43940	5.0804e-010	0.	5.0804e-010	0.
43960	5.0612e-010	0.	5.0612e-010	0.
43980	5.0421e-010	0.	5.0421e-010	0.
44000	5.0231e-010	0.	5.0231e-010	0.
